frequency,intensity_parallel,intensity_perpendicular,intensity_unpolarized,intensity_isotropic
0.0,0.0,0.0,0.0,0.0
0.24249810836892044,5.678033220954852e-06,1.7452800973411384e-06,7.4233133182959905e-06,0.00026481519601606325
0.4849962167378409,1.1442898380869955e-05,3.5160035296648445e-06,1.49589019105348e-05,0.0005335496070784621
0.7274943251067614,1.7367646935259562e-05,5.333691436355189e-06,2.270133837161475e-05,0.0008094712248794234
0.9699924334756818,2.3485917768333393e-05,7.208099660085178e-06,3.069401742841857e-05,0.0010939969667974913
1.2124905418446021,2.9796702058840205e-05,9.138742945917023e-06,3.8935445004757225e-05,0.0013869109287186889
1.4549886502135227,3.6275726710308094e-05,1.1118221416198265e-05,4.739394812650636e-05,0.001686892012794771
1.6974867585824431,4.289292303427238e-05,1.3137465202198757e-05,5.603038823647114e-05,0.0019923434674397836
1.9399848669513635,4.962429172150888e-05,1.5189486119596057e-05,6.481377784110494e-05,0.0023019967368296482
2.182482975320284,5.6458571446554126e-05,1.7271546866924992e-05,7.373011831347912e-05,0.0026152788413354427
2.4249810836892043,6.339693909235823e-05,1.938525989967994e-05,8.278219899203817e-05,0.002932346375389533
2.6674791920581247,7.044699720754168e-05,2.153491630815962e-05,9.19819135157013e-05,0.003253844156016704
2.9099773004270455,7.761603107026599e-05,2.372511480251909e-05,0.00010134114587278507,0.003580557130942631
3.1524754087959654,8.490276530246979e-05,2.5957849616099326e-05,0.00011086061491856911,0.00391296611151456
3.3949735171648863,9.229167762318116e-05,2.823014885718886e-05,0.00012052182648037002,0.004250866672935363
3.637471625533806,9.974764582335532e-05,3.0532029416025e-05,0.00013027967523938032,0.0045930208565136
3.879969733902727,0.00010722126311859863,3.284774960013766e-05,0.0001400690127187363,0.004937309046702208
4.122467842271647,0.00011466064602752849,3.515944661394486e-05,0.00014982009264147335,0.00528125050853599
4.364965950640568,0.0001220302189040781,3.745277633704335e-05,0.00015948299524112146,0.005622890965805847
4.607464059009487,0.00012932521049668935,3.9721505619181704e-05,0.00016904671611587104,0.0059615404641767565
4.849962167378409,0.0001365749414678013,4.19689759886666e-05,0.0001785439174564679,0.0062980387440498406
5.092460275747329,0.00014382953047129552,4.420489174250321e-05,0.00018803442221379874,0.006634258681625745
5.334958384116249,0.00015113605272101048,4.64393067818488e-05,0.00019757535950285928,0.006972115090015061
5.57745649248517,0.0001585149597817354,4.867678705254348e-05,0.0002071917468342789,0.007312556085461718
5.819954600854091,0.00016594677140720023,5.091341929447501e-05,0.00021686019070167524,0.007654959333139463
6.0624527092230105,0.00017337436775891242,5.313763621547329e-05,0.0002265120039743857,0.007997190800448308
6.304950817591931,0.0001807176060453096,5.5333972274905586e-05,0.0002360515783202152,0.008336181370597691
6.547448925960852,0.00018789186299307905,5.7486732950255805e-05,0.00024537859594333486,0.008668652105021685
6.7899470343297725,0.00019482580432830088,5.9582941477751574e-05,0.00025440874580605246,0.00899178911194448
7.032445142698692,0.0002014728632449281,6.161319023868903e-05,0.0002630860534836171,0.00930363066331449
7.274943251067612,0.0002078158630286422,6.357150133239939e-05,0.0002713873643610416,0.009603197723936665
7.517441359436534,0.00021386185561054002,6.545391993335306e-05,0.0002793157755438931,0.009890251614912453
7.759939467805454,0.00021962944266865913,6.725706759081215e-05,0.00028688651025947126,0.01016484769008381
8.002437576174374,0.00022513777119863903,6.897804479434552e-05,0.00029411581599298457,0.010427039303385486
8.244935684543295,0.00023039935585842877,7.061546082697113e-05,0.0003010148166853999,0.010676761483776893
8.487433792912215,0.00023542196041842958,7.217104767305368e-05,0.00030759300809148326,0.010914042453121432
8.729931901281136,0.00024021950405473977,7.365188343220611e-05,0.00031387138748694587,0.011139480991863572
8.972430009650058,0.0002448192806118298,7.506999291922245e-05,0.00031988927353105226,0.011354477725383463
9.214928118018975,0.0002492602169400885,7.643927483280009e-05,0.0003256994917728886,0.011561023927000374
9.457426226387897,0.00025357917460874725,7.777056949963885e-05,0.0003313497441083861,0.011761017008627948
9.699924334756817,0.00025779834167588165,7.906899687456527e-05,0.0003368673385504469,0.011955686593357552
9.942422443125738,0.00026192066980624336,8.033446588100509e-05,0.00034225513568724846,0.012145445036949679
10.184920551494658,0.0002659427979763124,8.15673775929777e-05,0.0003475101755692901,0.012330513271842803
10.42741865986358,0.0002698719895774211,8.27735650568443e-05,0.00035264555463426544,0.012511688872515815
10.669916768232499,0.0002737352226113581,8.39659878177602e-05,0.00035770121042911834,0.01269068409913881
10.91241487660142,0.00027756866359074047,8.515942146904017e-05,0.00036272808505978066,0.01286954657356478
11.15491298497034,0.0002813995475132269,8.636358596553819e-05,0.0003677631334787651,0.013049734921452942
11.397411093339262,0.00028523059573344107,8.757777236100883e-05,0.0003728083680944499,0.013231355724629216
11.639909201708182,0.00028904960454165273,8.879439383279722e-05,0.00037784399837444995,0.01341362702017889
11.8824073100771,0.0002928558169825829,9.000820388535957e-05,0.0003828640208679425,0.013596128706513817
12.124905418446021,0.00029668804654297155,9.122654784974414e-05,0.00038791459439271566,0.013780170787948779
12.367403526814943,0.00030062960867163356,9.247245734756948e-05,0.000393102066019203,0.01396908427133082
12.609901635183862,0.00030478589522328706,9.377894391595512e-05,0.00039856483913924216,0.014167231022724517
12.852399743552782,0.0003092423415491918,9.517624354915396e-05,0.0004044185850983458,0.01437810360847378
13.094897851921704,0.00031402701702629653,9.667997155769263e-05,0.00041070698858398913,0.014602625797224022
13.337395960290625,0.00031909554666176895,9.828495182721384e-05,0.0004173804984889828,0.01483851558275031
13.579894068659545,0.00032434432381350185,9.996788486417598e-05,0.0004243122086776778,0.015080985448545041
13.822392177028467,0.00032963326070597847,0.00010169280692873997,0.00043132606763471846,0.01532394190012944
14.064890285397384,0.0003348154475933857,0.00010341896819927265,0.00043823441579265835,0.01556143381453289
14.307388393766306,0.0003397633252724109,0.00010510799124862837,0.00044487131652103925,0.01578883169737159
14.549886502135225,0.0003443833406731137,0.00010672805932994578,0.0004511114000030595,0.016003284218711753
14.792384610504145,0.0003486347447172589,0.00010825991738815182,0.0004568946621054107,0.016204196053151706
15.034882718873067,0.0003525342177842256,0.0001096980020705743,0.00046223221985479987,0.016393014013883007
15.277380827241988,0.0003561468728259138,0.00011104862489290816,0.000467195497718822,0.016572552210549717
15.519878935610908,0.00035955966359493217,0.00011232261977216562,0.00047188228336709776,0.0167457974140072
15.762377043979827,0.0003628431731710601,0.00011352562634728665,0.00047636879951834673,0.01691447971801499
16.00487515234875,0.0003660226941069078,0.00011465220661467026,0.00048067490072157805,0.01707827215080689
16.24737326071767,0.00036907110462210005,0.00011568647417850887,0.00048475757880060894,0.0172348822429118
16.48987136908659,0.00037193291699765473,0.00011661226119532927,0.000488545178192984,0.01738140354379792
16.73236947745551,0.0003745704440760465,0.00011742801636679877,0.0004919984604428453,0.01751634407774236
16.97486758582443,0.00037700464239471247,0.00011815840127655921,0.0004951630436712716,0.017641245667832196
17.21736569419335,0.00037933837196928215,0.00011885718657776878,0.000498195558547051,0.01776135487267752
17.45986380256227,0.00038173738065509983,0.00011959568086530822,0.0005013330615204081,0.017884473493720368
17.70236191093119,0.00038437871863796603,0.00012044092116223487,0.0005048196398002009,0.018018481299708948
17.944860019300116,0.0003873987626218238,0.0001214368448507145,0.0005088356074725383,0.01816905478862054
18.187358127669036,0.00039086038435500093,0.00012259557411062986,0.0005134559584656308,0.01833843217835383
18.42985623603795,0.0003947555923537085,0.00012390339690539865,0.0005186589892591071,0.01852583902113116
18.67235434440687,0.0003990339495941383,0.00012533557703844572,0.000524369526632584,0.018728981343314927
18.914852452775794,0.00040363477391347475,0.00012687095453359839,0.0005305057284470732,0.01894555242230059
19.157350561144714,0.00040850192488332777,0.0001284960997872349,0.0005369980246705627,0.019173722485250108
19.399848669513634,0.0004135781819616086,0.00013020035426081276,0.0005437785362224214,0.019411617092899538
19.64234677788255,0.00041879429768278153,0.0001319669549071443,0.0005507612525899258,0.019656555529773648
19.884844886251475,0.0004240687681943492,0.00013376888608368417,0.0005578376542780334,0.01990487498158265
20.127342994620395,0.0004293203949539896,0.00013557193652648513,0.0005648923314804748,0.020152509372990648
20.369841102989316,0.00043449334065668655,0.0001373451972479742,0.0005718385379046608,0.020396243397847215
20.612339211358236,0.00043957004815062186,0.00013907032846306662,0.0005786403766136884,0.020634528821544106
20.85483731972716,0.0004445665843358328,0.00014074466508529914,0.0005853112494211319,0.020867478876555795
21.097335428096077,0.0004495171620580848,0.00014237796848725473,0.0005918951305453396,0.02109632338275033
21.339833536464997,0.0004544523854824779,0.00014398453272742567,0.0005984369182099036,0.021322524984813976
21.582331644833918,0.0004593914937957402,0.000145577323150633,0.0006049688169463732,0.021547396918661324
21.82482975320284,0.00046435642818781157,0.00014716793391529335,0.0006115243621031049,0.021772598952884213
22.067327861571762,0.00046937591762406024,0.00014876678571562173,0.000618142703339682,0.022000163467454488
22.30982596994068,0.0004744856917737382,0.00015038404259181532,0.0006248697343655535,0.02223234567833481
22.5523240783096,0.00047970396310725936,0.00015202540757079156,0.0006317293706780509,0.022470474660480213
22.794822186678523,0.00048500181126073664,0.0001536853501073948,0.0006386871613681314,0.02271364172362247
23.037320295047444,0.000490299092013517,0.00015534551099717753,0.0006456446030106945,0.022958544734553294
23.279818403416364,0.0004954888221344037,0.00015697967605943368,0.0006524684981938374,0.023200608744924085
23.522316511785277,0.0005004860050596898,0.00015856491103186814,0.000659050916091558,0.02343612735035837
23.7648146201542,0.0005052707020936101,0.0001600943979116936,0.0006653651000053036,0.02366421531401031
24.00731272852312,0.0005098927614986227,0.00016158246502263307,0.0006714752265212558,0.02388707389208651
24.249810836892042,0.0005144412098911823,0.00016305921996069483,0.0006775004298518771,0.024108664563218075
24.492308945260962,0.0005190073130744324,0.0001645612618718407,0.0006835685749462732,0.02433311174151805
24.734807053629886,0.000523655609106964,0.00016611915005586178,0.0006897747591628258,0.024563307005371644
24.977305161998803,0.000528436161152335,0.0001677545145022573,0.0006961906756545923,0.02480139094176624
25.219803270367724,0.000533408954646968,0.00016948136907606032,0.0007028903237230283,0.025049785144519467
25.462301378736644,0.0005386668823686302,0.0001713121415841712,0.0007099790239528015,0.02531223538327082
25.704799487105564,0.000544323955018284,0.00017325825984238676,0.0007175822148606707,0.025593340119349533
25.947297595474488,0.0005504689395811705,0.00017532179233590106,0.0007257907319170716,0.025896531686001152
26.18979570384341,0.0005571084552589221,0.00017748437921390653,0.0007345928344728286,0.02622154616035378
26.432293812212325,0.0005641329552937015,0.00017969998087788072,0.0007438329361715822,0.02656299260448407
26.67479192058125,0.0005713345463682308,0.00018190149793602422,0.0007532360443042549,0.026911242231671993
26.917290028950166,0.0005784700778684986,0.00018402067602413559,0.0007624907538926342,0.02725540313155061
27.15978813731909,0.0005853492765055097,0.00018601436350941256,0.0007713636400149222,0.027587353324786623
27.40228624568801,0.0005919046279519925,0.00018788363668459054,0.0007797882646365831,0.027904851836502112
27.644784354056934,0.0005982051057579245,0.0001896739988756897,0.0007878791046336143,0.028212043228080557
27.88728246242585,0.0006044141571801558,0.00019145772976643402,0.0007958718869465898,0.02851732778878521
28.129780570794768,0.0006107180176710217,0.00019330714928568528,0.0008040251669567069,0.028829912978853203
28.372278679163692,0.0006172580453532529,0.00019527198650717698,0.0008125300318604299,0.02915660003858042
28.614776787532612,0.0006240981209505712,0.00019737019464058933,0.0008214683155911605,0.029500285263550276
28.857274895901536,0.0006312288334028506,0.00019959136095429984,0.0008308201943571504,0.0298601908066904
29.09977300427045,0.0006385910083421295,0.00020190559048842806,0.0008404965988305576,0.03023299352987229
29.342271112639366,0.0006461183749632384,0.00020427640493315426,0.0008503947798963927,0.030614859789043443
29.58476922100829,0.0006537725654615281,0.00020666942270649604,0.0008604419881680242,0.03100310902713318
29.827267329377214,0.0006615765396388797,0.00020906323862677806,0.0008706397782656577,0.03139793805997498
30.069765437746135,0.0006696280687228603,0.00021145687021414334,0.0008810849389370036,0.031803261703772
30.31226354611505,0.0006780988476866869,0.0002138769627741539,0.0008919758104608408,0.03222689159579317
30.554761654483976,0.0006872059889791593,0.00021637741627704513,0.0009035834052562044,0.03267927894983259
30.797259762852892,0.0006971648085725761,0.00021903018083029878,0.0009161949894028749,0.03317116583639284
31.039757871221816,0.000708138631849951,0.00022191046873438547,0.0009300491005843365,0.033711021441693814
31.282255979590733,0.0007202084731953651,0.00022508305544637294,0.000945291528641738,0.03430337806372763
31.524754087959654,0.0007333499280910725,0.00022858525290861406,0.0009619351809996866,0.03494758642119024
31.76725219632857,0.0007474443401953839,0.0002324220675341553,0.0009798664077295392,0.03563831698086451
32.0097503046975,0.0007622966627741854,0.00023656355180932053,0.000998860214583506,0.036366430942922294
32.25224841306642,0.0007776839415571177,0.00024095474333829314,0.0010186386848954109,0.03712125606300385
32.49474652143534,0.0007934075632510531,0.0002455310819178477,0.0010389386451689008,0.03789303514725593
32.73724462980426,0.0008093438157056954,0.0002502364077584705,0.0010595802234641659,0.03867530254267496
32.97974273817318,0.0008254897197586777,0.0002550421943556754,0.001080531914114353,0.03946702725118812
33.22224084654209,0.0008419526990481201,0.0002599523707216829,0.001101905069769803,0.04027224772930568
33.46473895491102,0.0008589055402749869,0.0002649978304020345,0.0011239033706770215,0.04109817122837314
33.70723706327993,0.0008764895445351935,0.00027021237971074145,0.001146701924245935,0.041950872326860726
33.94973517164886,0.0008947304965184393,0.0002756070116782022,0.0011703375081966415,0.0428314726027313
34.19223328001778,0.0009134965002104599,0.00028115222989202686,0.0011946487301024867,0.043734110472736544
34.4347313883867,0.0009325354956454015,0.0002867804743043371,0.0012193159699497387,0.044647345814837355
34.67722949675562,0.000951574692103016,0.00029240799176631166,0.0012439826838693277,0.04555836971313809
34.91972760512454,0.0009704398426012907,0.0002979676264702981,0.001268407469071589,0.04645825794467028
35.16222571349346,0.0009891502330913438,0.00030343930820591014,0.001292589541297254,0.04734639088858177
35.40472382186238,0.0010079121591727923,0.000308854919905534,0.0013167670790783263,0.04823057740259533
35.647221930231304,0.0010270592955481752,0.00031428539031613627,0.0013413446858643115,0.04912480630717334
35.88972003860023,0.0010469113418639373,0.00031980337883174507,0.0013667147206956824,0.050043173949953494
36.132218146969144,0.0010676680456548784,0.00032545248121775407,0.0013931205268726326,0.050995137920620486
36.37471625533807,0.001089363547124607,0.00033123464765957736,0.0014205981947841844,0.05198301930154207
36.617214363706985,0.0011119281230279204,0.00033713009058746124,0.0014490582136153817,0.05300435422955465
36.8597124720759,0.001135294197987746,0.00034313118913505293,0.0014784253871227989,0.05405622276104265
37.102210580444826,0.0011594928441323383,0.00034927204208070337,0.0015087648862130416,0.05513959217786042
37.34470868881374,0.0011846563233443399,0.0003556278100368015,0.0015402841333811415,0.0562598080585462
37.58720679718267,0.001210898927588821,0.00036227572588422893,0.00157317465347305,0.05742197037733453
37.82970490555159,0.001238151307428059,0.0003692396989449261,0.0016073910063729852,0.058624114072529446
38.072203013920515,0.0012660658841581905,0.0003764587262082542,0.0016425246103664447,0.059853323645417705
38.31470112228943,0.0012940494577857325,0.0003837923381605917,0.0016778417959463243,0.061086949619535064
38.55719923065835,0.001321433772759815,0.0003910688202425173,0.0017125025930023324,0.06229952218526434
38.79969733902727,0.0013476927815054475,0.0003981472833150636,0.0017458400648205112,0.06347161581064091
39.04219544739619,0.0013725807040092094,0.0004049588925134694,0.0017775395965226788,0.06459535620254685
39.2846935557651,0.001396141768922504,0.00041151170548517227,0.0018076534744076763,0.0656744324193754
39.52719166413403,0.0014185977938688478,0.0004178589063754956,0.0018364567002443434,0.06671896210029885
39.76968977250295,0.0014402169520802463,0.0004240633929278407,0.001864280345008087,0.0677398072306493
40.01218788087187,0.0014612334412201135,0.00043017381139355174,0.0018914072526136653,0.06874522127957582
40.25468598924079,0.001481841834244425,0.00043622170307918876,0.0019180635373236138,0.06974085232622741
40.49718409760972,0.0015022801931507126,0.0004422445529132598,0.0019445247460639723,0.07073387018171517
40.73968220597863,0.0015228919616057852,0.00044830518643692143,0.0019711971480427066,0.07173638269736762
40.98218031434756,0.0015441262688387514,0.0004544979041282607,0.0019986241729670123,0.07276620543114513
41.22467842271647,0.0015664441509525924,0.00046092856830950643,0.002027372719262099,0.073843515735617
41.46717653108539,0.001590158429856021,0.00046767886920121954,0.0020578372990572406,0.07498436291863303
41.70967463945432,0.0016152476610239745,0.0004747575935329077,0.0020900052545568823,0.0761925803007739
41.952172747823234,0.0016412848244866103,0.0004820792920696053,0.0021233641165562156,0.07745609054073611
42.194670856192154,0.0016674731509058246,0.0004894649028632781,0.0021569380537691026,0.07874758916151542
42.437168964561074,0.0016928466222373671,0.0004966848183945149,0.002189531440631882,0.0800319999782872
42.679667072929995,0.0017165835681640011,0.0005035319020172184,0.0022201154701812194,0.0812789082757969
42.92216518129891,0.0017383137607021478,0.0005099054922285481,0.002248219252930696,0.08247535003249645
43.164663289667835,0.0017582933361399691,0.0005158635186352277,0.002274156854775197,0.08363321991825541
43.407161398036756,0.0017773717475999765,0.0005216268096536953,0.002298998557253672,0.08478842912417797
43.64965950640568,0.001796769445566365,0.0005275280957326744,0.0023242975412990394,0.08599217236502392
43.8921576147746,0.0018177163071947838,0.0005339173366107839,0.0023516336438055676,0.08729644081490304
44.134655723143524,0.0018411618613399954,0.0005410761469149656,0.002382238008254961,0.08874191032854209
44.37715383151244,0.0018675952042735999,0.0005491619869734778,0.0024167571912470775,0.0903503524616645
44.61965193988136,0.0018970415742643647,0.0005581986642941425,0.002455240238558507,0.09212370190606159
44.86215004825028,0.0019292149810140639,0.0005681161029300739,0.002497331083944138,0.09404994184182665
45.1046481566192,0.0019637933847213335,0.0005788251287729241,0.0025426185134942575,0.09611422311753814
45.34714626498811,0.002000610796528412,0.0005902702502349421,0.002590881046763354,0.09830685547914511
45.58964437335705,0.002039758605636502,0.00060245602344211,0.002642214629078612,0.10062802318825079
